subject ID,labels,0,1,2,3,4,5,6,7,8,9,10,11,12,13,14,15,16,17,18,19,20,21,22,23,24,25,26,27,28,29,30,31,32,33,34,35,36,37,38,39,40,41,42,43,44,45,46,47,48,49,50,51,52,53,54,55,56,57,58,59,60,61,62,63,64,65,66,67,68,69,70,71,72,73,74,75,76,77,78,79,80,81,82,83,84,85,86,87,88,89,90,91,92,93,94,95,96,97,98,99,100,101,102,103,104,105,106,107,108,109,110,111,112,113,114,115,116,117,118,119,120,121,122,123,124,125,126,127,128,129,130,131,132,133,134,135,136,137,138,139,140,141,142,143,144,145,146,147,148,149,150,151,152,153,154,155,156,157,158,159,160,161,162,163,164,165,166,167,168,169,170,171,172,173,174,175,176,177,178,179,180,181,182,183,184,185,186,187,188,189,190,191,192,193,194,195,196,197,198,199,200,201,202,203,204,205,206,207,208,209,210,211,212,213,214,215,216,217,218,219,220,221,222,223,224,225,226,227,228,229,230,231,232,233,234,235,236,237,238,239,240,241,242,243,244,245,246,247,248,249,250,251,252,253,254,255,256,257,258,259,260,261,262,263,264,265,266,267,268,269,270,271,272,273,274,275,276,277,278,279,280,281,282,283,284,285,286,287,288,289,290,291,292,293,294,295,296,297,298,299,300,301,302,303,304,305,306,307,308,309,310,311,312,313,314,315,316,317,318,319,320,321,322,323,324,325,326,327,328,329,330,331,332,333,334,335,336,337,338,339,340,341,342,343,344,345,346,347,348,349,350,351,352,353,354,355,356,357,358,359,360,361,362,363,364,365,366,367,368,369,370,371,372,373,374,375,376,377,378,379,380,381,382,383,384,385,386,387,388,389,390,391,392,393,394,395,396,397,398,399,400,401,402,403,404,405,406,407,408,409,410,411,412,413,414,415,416,417,418,419,420,421,422,423,424,425,426,427,428,429,430,431,432,433,434,435,436,437,438,439,440,441,442,443,444,445,446,447,448,449,450,451,452,453,454,455,456,457,458,459,460,461,462,463,464,465,466,467,468,469,470,471
sub_1,normal,640,636,630,656,670,644,660,608,618,648,624,642,612,636,668,672,690,694,706,688,630,620,608,640,658,670,652,648,672,612,368,870,608,630,618,628,622,600,628,620,648,644,616,678,688,622,614,594,580,584,662,668,674,646,650,662,678,692,668,652,668,628,670,684,672,648,654,684,642,624,636,656,692,694,674,692,698,708,662,678,666,662,690,694,636,658,664,654,702,710,722,692,694,690,684,682,692,684,698,660,720,672,674,666,686,666,636,644,652,642,616,618,610,656,686,654,638,656,662,660,666,676,672,638,636,630,642,652,646,692,680,708,684,642,662,624,646,624,616,602,604,582,620,612,674,672,678,674,690,684,636,610,620,606,626,654,656,702,684,720,722,670,640,652,648,652,656,638,654,614,636,680,692,678,670,656,636,622,618,636,382,296,624,670,706,682,644,650,648,678,684,686,656,638,654,688,726,740,692,654,670,694,720,702,648,654,716,724,690,682,694,710,670,682,652,644,638,672,708,732,678,666,680,690,682,666,650,652,666,682,680,656,650,664,696,716,684,650,654,672,676,694,670,682,672,636,644,658,638,626,600,606,622,664,692,686,674,686,688,680,672,644,622,610,624,618,606,622,676,732,766,750,724,720,730,716,678,680,658,624,618,620,554,676,618,700,658,622,618,626,676,698,726,712,718,674,662,682,720,756,718,684,686,710,702,658,662,698,688,676,702,746,750,698,710,732,750,734,686,674,710,736,760,738,688,692,722,738,746,710,666,692,694,712,688,686,724,746,730,698,718,746,740,698,690,710,706,702,682,688,716,722,702,680,688,726,744,710,684,704,708,688,664,636,638,656,762,758,710,746,758,790,720,706,698,682,690,650,680,716,742,698,668,650,654,678,726,722,696,698,734,774,798,758,730,726,746,754,698,684,708,730,718,682,690,726,730,682,670,672,632,658,650,698,780,820,736,758,818,792,730,710,694,672,648,654,698,732,720,672,646,662,644,658,662,690,670,680,666,668,648,634,636,654,668,684,692,686,662,644,630,636,668,652,662,668,654,640,624,616,624,642,654,684,660,626,664,652,676,,,
sub_2,normal,656,640,648,622,628,644,648,698,772,790,720,702,706,698,690,666,630,624,654,656,646,644,640,654,692,704,664,650,662,690,634,636,642,688,732,744,706,662,614,612,618,658,678,658,714,782,796,758,682,656,658,632,610,634,626,612,632,644,628,632,674,662,656,686,682,650,654,670,652,630,642,666,658,664,728,716,694,720,708,688,660,666,676,670,674,740,746,700,744,774,766,708,754,712,692,694,752,718,770,772,736,742,702,654,646,632,622,602,598,602,638,720,698,754,784,794,748,732,692,642,610,608,604,598,612,640,664,678,656,648,632,636,666,706,672,656,680,708,696,660,648,666,700,728,734,658,642,660,656,626,614,646,650,678,706,722,724,692,642,634,650,646,644,666,658,710,736,688,746,768,744,728,720,706,668,624,630,620,618,662,702,696,706,760,772,712,756,776,722,658,656,674,654,648,672,696,678,692,714,688,694,686,724,710,636,638,632,630,612,626,668,722,676,664,698,654,636,614,592,606,622,634,656,696,722,734,728,712,652,644,656,698,692,712,672,654,678,682,706,666,648,658,682,676,656,658,694,702,684,664,670,718,728,726,664,676,728,684,650,672,692,678,646,630,644,662,630,622,644,706,712,648,692,690,672,650,638,616,614,632,634,648,710,756,746,682,652,674,682,686,722,672,662,660,668,648,632,694,716,718,710,728,752,728,666,648,640,614,608,622,652,680,682,700,664,648,670,676,688,668,628,626,634,612,630,670,682,666,694,714,676,660,678,652,674,692,656,666,694,700,664,672,688,690,646,640,662,650,658,678,652,658,706,704,644,640,656,686,628,626,680,658,636,664,652,682,662,634,666,662,668,640,644,684,710,694,636,622,630,628,612,624,670,684,654,678,692,664,680,708,670,648,662,688,652,634,686,656,652,640,680,656,668,690,686,716,692,656,612,606,612,640,690,704,710,742,760,774,702,664,674,662,628,622,624,632,666,682,658,678,702,710,658,680,674,694,670,684,712,648,684,666,680,684,668,676,660,618,,,,,,,,,,,,,,,,,,,,,,,,
sub_3,normal,600,616,674,650,606,698,702,708,672,644,706,712,722,678,704,736,758,772,592,896,538,618,706,704,718,682,698,632,618,692,540,678,724,736,726,664,662,688,720,662,710,728,752,758,726,686,684,664,700,666,650,652,656,690,692,702,738,710,676,702,686,666,662,698,694,682,704,782,728,724,766,716,730,708,716,680,654,684,642,718,654,628,656,684,672,640,682,650,784,550,710,698,646,696,606,644,704,674,600,680,726,752,760,740,664,644,744,718,668,688,746,782,682,736,734,1954,1428,1230,740,674,758,582,660,656,650,634,620,636,682,726,686,780,878,696,732,722,692,660,668,610,662,650,614,668,694,674,670,710,682,650,674,690,674,646,666,694,672,666,688,672,670,648,688,656,648,640,638,648,626,644,680,640,638,672,696,678,706,702,658,656,688,694,634,708,578,616,596,584,638,698,650,676,720,694,744,700,670,674,692,710,676,720,752,718,672,694,692,742,642,674,694,662,664,614,652,624,1196,718,472,648,608,628,678,686,664,628,638,626,620,684,602,664,672,694,634,612,620,648,680,586,668,628,640,606,620,624,628,606,620,616,600,630,572,600,594,640,656,652,656,1316,790,476,568,622,536,566,568,582,578,662,606,638,656,638,670,740,642,650,668,658,642,616,648,642,634,650,708,696,682,666,680,634,660,614,628,624,612,606,614,622,602,604,640,644,646,620,592,598,596,600,618,628,610,624,654,644,658,644,670,686,672,642,668,680,692,686,698,730,690,686,672,684,686,676,670,698,692,658,680,670,672,656,626,618,620,662,652,632,652,684,650,692,690,678,656,662,698,680,664,676,706,694,668,688,702,708,674,686,716,684,666,692,700,706,670,692,712,704,670,654,688,644,636,614,662,666,626,666,682,676,664,624,656,664,616,622,652,640,646,624,620,602,662,642,604,622,666,686,634,648,666,682,656,624,640,658,652,642,622,1278,766,502,660,614,612,578,630,660,648,664,630,674,590,640,560,608,592,600,,,,,,,,,,,,,,,,,,,,,,,,,,,,,,,,,,
sub_4,normal,298,538,322,532,874,850,824,854,858,866,830,822,832,834,806,814,834,808,810,832,840,810,808,818,800,784,796,802,788,802,756,740,734,750,774,776,796,818,810,852,872,820,844,848,802,818,824,786,802,812,782,796,818,798,800,816,830,802,836,842,802,828,824,802,812,824,802,824,842,830,826,820,796,818,846,844,828,844,848,822,834,844,832,800,812,838,848,824,818,840,862,866,826,796,822,838,834,820,824,840,822,824,834,810,830,834,766,736,708,704,708,680,648,668,684,732,748,786,808,818,790,798,766,774,790,800,814,822,828,824,826,782,766,740,750,766,772,788,818,816,778,796,814,804,776,800,812,782,760,756,792,756,708,736,700,706,756,768,778,790,782,796,822,816,812,810,782,762,752,736,798,854,846,834,836,860,874,868,854,848,852,854,860,858,852,832,820,816,802,794,786,776,778,760,754,766,776,752,760,780,784,774,790,794,768,766,772,774,740,750,762,760,752,774,804,792,788,812,784,796,794,766,768,788,812,810,828,838,834,802,820,822,806,772,774,788,796,812,788,796,802,804,786,804,810,784,800,814,792,786,794,792,786,796,778,772,794,762,770,788,804,794,776,794,814,800,786,802,812,784,794,802,776,774,784,786,764,784,802,780,786,794,776,782,794,766,776,784,778,766,786,790,762,776,782,754,756,766,744,750,762,780,784,776,774,746,676,708,736,724,718,738,758,768,754,762,776,782,762,778,780,768,754,762,768,756,760,766,744,756,782,784,774,782,808,812,790,806,810,796,792,802,788,786,768,778,782,780,762,784,802,794,796,794,798,760,768,772,784,768,780,808,818,796,812,830,828,786,794,802,814,802,790,808,822,832,802,822,844,856,824,844,846,854,826,812,816,824,810,786,798,808,802,764,756,764,778,764,784,800,780,764,774,752,762,774,750,776,792,794,764,756,768,776,750,732,752,732,722,734,736,740,738,724,734,752,768,748,764,776,778,750,752,738,726,742,760,746,758,756,750,742,750,746,714,712,710,704,708,720,726,720,712,746,766,770,750,758,764,756,732,740,748,762,750,738,746,752,736,756,758,742
sub_5,normal,630,616,598,638,626,616,594,620,626,646,626,630,644,618,582,620,616,650,612,604,654,612,614,624,632,614,602,600,608,578,586,578,576,620,630,616,634,624,618,600,588,608,618,568,608,636,668,634,666,658,648,622,648,630,620,634,646,588,620,646,588,616,614,638,624,596,604,572,610,580,594,608,602,594,612,642,602,598,638,630,642,630,652,626,624,630,636,614,602,600,590,576,588,586,574,578,586,594,588,614,620,588,638,606,620,624,596,590,604,606,594,616,574,596,570,560,592,588,636,506,574,582,590,588,614,620,614,600,610,650,624,592,636,648,660,636,642,618,644,660,662,656,640,666,664,660,640,660,622,620,638,602,610,632,640,656,624,642,636,644,622,630,634,648,598,606,614,612,618,634,666,624,638,648,634,598,632,644,634,604,616,636,600,612,624,604,600,596,600,592,608,592,556,602,578,566,568,566,568,570,574,580,586,606,598,630,602,592,626,646,582,588,592,604,584,590,550,586,552,588,578,554,588,630,686,684,712,750,720,710,716,700,698,654,616,640,576,554,576,584,564,578,604,660,726,738,714,684,686,664,626,622,616,612,602,638,644,628,632,642,636,672,676,654,640,688,604,666,654,632,624,626,592,604,638,626,610,606,630,604,580,606,602,592,588,580,620,618,596,634,602,660,626,660,654,690,638,646,634,626,600,642,638,612,568,656,616,584,620,598,638,646,622,652,704,664,636,662,650,646,634,590,620,624,586,594,610,632,612,646,626,622,628,644,604,626,618,604,614,618,644,1208,724,512,594,598,586,610,572,596,606,608,590,606,602,594,584,588,546,620,616,566,590,582,576,552,594,584,588,604,606,590,620,596,618,616,606,596,610,594,610,652,664,692,646,700,650,636,658,626,614,626,646,656,674,692,742,634,680,678,650,652,654,640,632,628,604,618,624,572,596,618,612,592,628,610,600,590,642,636,648,626,628,606,588,616,594,600,596,584,606,590,602,604,586,614,590,608,592,568,588,578,568,584,578,626,634,658,624,620,636,586,606,594,740,456,610,584,598,602,630,530,612,592,578,582,616,642,738,702,698,676
sub_6,normal,618,638,2030,1330,1432,1388,1302,782,698,802,664,740,706,638,678,632,720,866,608,494,642,720,586,744,640,1878,1332,874,916,764,790,900,890,830,694,770,754,800,788,704,730,818,878,860,776,842,888,890,808,736,830,884,860,742,740,858,898,814,698,730,824,956,574,344,520,684,410,362,600,660,432,804,658,698,664,672,716,746,790,708,696,702,772,766,706,680,754,816,864,792,714,774,464,410,610,754,730,756,778,676,406,338,252,490,698,696,524,858,696,738,746,680,712,766,820,836,744,708,754,798,822,742,744,790,820,778,708,718,802,780,674,692,698,708,722,668,626,698,594,732,752,700,686,748,814,816,738,674,700,760,790,768,692,748,858,778,666,732,808,790,732,668,750,752,742,694,676,722,734,766,698,690,752,774,732,682,706,736,804,762,720,754,786,836,776,702,726,762,792,814,734,692,738,790,822,750,706,508,1062,776,698,678,704,770,756,672,686,754,798,810,700,702,746,782,802,730,710,792,850,856,780,734,780,820,842,742,728,780,852,826,726,742,808,832,768,694,764,780,826,726,698,730,792,716,706,778,838,1472,884,658,776,724,682,702,754,784,732,698,764,830,806,736,694,758,778,736,682,662,736,748,738,678,716,754,790,738,670,726,740,742,678,654,702,712,736,694,664,696,754,740,678,682,410,1098,696,658,734,754,794,708,694,706,760,732,652,744,748,688,664,640,616,678,746,736,656,650,702,748,734,674,684,734,760,792,732,668,722,800,854,774,702,756,814,852,768,694,730,766,822,760,674,742,868,824,742,702,786,868,778,734,720,748,768,756,692,684,760,806,826,712,718,808,848,804,714,680,852,850,846,716,732,774,806,776,680,1246,748,822,854,892,808,794,828,840,912,740,794,592,810,702,748,,,,,,,,,,,,,,,,,,,,,,,,,,,,,,,,,,,,,,,,,,,,,,,,,,,,,,,,,,,,,,,,,,,,,,,,,,,,,,,,,
sub_7,normal,632,670,724,700,740,760,730,700,654,616,608,582,562,560,576,574,620,724,814,842,848,774,714,676,654,640,622,574,592,618,938,978,948,776,684,708,720,688,804,774,770,914,966,882,712,646,700,886,952,888,734,744,776,704,776,904,802,762,780,684,650,702,850,870,706,670,728,924,904,714,648,678,802,880,758,802,892,846,806,742,648,590,598,642,806,774,690,644,614,646,814,866,760,690,686,734,764,714,634,622,634,644,660,650,724,866,906,876,726,660,658,676,708,704,728,742,734,672,620,618,624,618,636,618,600,626,718,768,784,700,620,588,614,676,880,858,694,670,750,914,792,684,716,842,760,690,644,616,646,802,858,700,646,696,828,852,710,658,682,702,700,676,710,786,798,728,650,626,624,614,588,540,544,596,774,888,904,780,706,764,928,962,876,742,714,764,820,832,722,666,676,678,692,670,640,638,672,692,708,730,710,650,648,688,728,734,668,618,630,678,790,864,744,784,780,788,710,706,714,710,674,632,602,616,654,724,726,672,710,802,818,726,658,672,694,732,698,646,676,692,688,650,664,660,612,608,636,674,794,736,652,682,734,744,700,626,610,634,660,680,630,620,676,836,830,712,684,660,642,624,610,588,566,552,568,616,728,722,646,652,672,712,696,660,664,628,634,640,624,600,576,586,590,604,584,600,742,900,904,796,780,796,766,668,604,614,646,664,660,704,810,824,778,676,608,598,658,770,714,654,712,684,718,746,668,590,596,572,570,580,624,682,680,674,710,704,686,680,654,612,606,622,626,616,590,580,570,546,540,550,584,648,698,706,678,658,706,704,684,662,648,644,624,644,666,682,686,656,638,666,702,740,782,796,784,716,644,648,710,778,726,664,680,664,638,644,648,614,594,610,628,640,650,828,936,798,682,654,696,902,1056,822,668,680,650,698,946,934,832,796,848,1030,1000,764,714,852,968,870,754,834,972,860,724,762,958,864,788,802,800,,,,,,,,,,,,,,,,,,,,,,,,,,,,,,,,,,,,,,,,,,,
sub_8,normal,330,624,740,772,690,728,828,810,774,886,928,792,688,690,788,832,754,804,1024,1060,948,920,946,948,846,852,966,980,898,924,1022,958,870,968,958,874,918,976,874,876,890,962,862,864,920,902,826,840,910,926,862,866,926,858,796,824,836,812,892,958,962,918,788,760,764,804,778,788,818,892,834,774,800,816,824,724,760,790,838,784,772,778,784,734,726,784,792,726,762,836,856,782,752,778,792,752,738,806,864,766,774,794,840,762,726,730,722,684,740,902,892,842,800,850,906,922,854,810,838,852,814,766,828,886,882,860,826,852,884,842,764,754,806,904,832,750,770,858,824,756,776,856,868,808,826,818,810,758,704,772,780,806,784,834,912,970,946,902,840,742,738,834,864,838,804,822,806,750,692,696,780,902,822,772,792,824,770,704,718,740,710,682,696,714,780,776,716,744,804,770,716,684,706,720,760,722,668,692,716,700,702,676,738,724,694,672,654,674,742,754,740,678,650,694,770,772,702,684,754,850,804,728,730,806,778,780,702,700,742,752,746,694,686,704,810,792,728,738,800,786,780,734,756,778,788,762,702,664,652,654,656,834,810,748,698,748,850,808,726,684,692,732,756,696,678,718,768,748,730,790,788,806,754,806,842,850,762,772,782,788,720,686,732,830,892,886,824,866,884,860,792,726,740,780,756,710,726,774,782,788,724,692,722,776,772,734,724,760,794,800,752,770,766,708,668,674,706,710,696,680,714,798,846,828,826,740,684,648,660,704,732,700,670,702,786,788,722,680,670,678,682,654,636,626,628,698,772,746,686,676,688,676,654,668,768,772,718,698,706,746,764,704,680,700,758,800,758,708,732,754,792,738,692,712,806,886,814,742,744,766,830,776,712,748,820,792,776,728,734,744,746,762,732,796,842,836,754,734,766,690,710,728,764,716,674,758,818,758,712,742,752,754,700,,,,,,,,,,,,,,,,,,,,,,,,,,,,,,,,,,,,,,,,,,,,,,,,,,,,,,,,,,,
sub_9,normal,426,774,748,666,664,668,674,852,808,810,754,666,676,718,694,658,684,860,806,730,694,688,650,622,656,768,792,682,640,690,804,812,716,696,704,734,772,708,712,732,772,822,714,666,670,792,764,710,648,654,694,818,790,712,648,622,594,630,632,656,710,976,830,696,650,654,718,750,686,652,672,942,828,772,712,654,678,788,844,818,784,698,702,794,806,734,654,640,666,744,692,624,628,658,868,770,650,614,630,650,698,650,612,658,678,680,630,604,630,654,666,644,610,638,654,660,634,608,640,652,666,648,612,592,620,682,732,716,638,630,662,674,668,614,592,606,640,810,828,702,634,648,686,692,644,592,604,618,672,678,652,620,650,686,684,640,590,602,628,664,618,636,720,746,660,582,350,328,630,634,610,572,576,584,598,618,634,624,598,606,630,634,616,626,668,674,624,654,682,752,740,668,672,740,796,762,696,624,620,716,712,650,638,642,656,662,610,594,624,644,696,814,806,708,640,634,640,668,656,618,622,678,864,818,706,626,622,628,664,656,632,614,648,720,732,672,622,648,674,660,622,600,618,622,642,626,594,606,648,712,758,724,646,666,732,716,684,652,604,588,600,642,698,682,634,676,754,796,718,636,654,706,644,616,644,660,676,672,626,608,624,664,756,784,692,654,644,650,676,622,446,268,252,628,522,578,576,570,564,568,580,586,604,622,642,622,636,638,680,690,670,646,612,604,644,680,704,650,604,630,666,672,636,600,624,680,718,706,676,640,608,624,646,678,702,718,690,644,654,652,650,670,702,664,618,634,664,732,796,688,630,648,702,754,686,644,662,702,736,702,686,728,772,774,726,672,668,652,634,664,674,652,644,678,662,654,692,680,640,670,668,694,710,666,698,732,762,736,704,696,712,676,622,606,642,746,782,756,692,638,640,646,696,692,648,632,640,674,720,742,734,694,634,626,632,664,694,704,668,626,628,636,658,682,644,626,668,690,736,726,668,610,640,660,674,678,652,608,630,714,782,736,650,638,656,684,658,612,614,644,646,,,,,,,,,,,,,,,,,,,,,
sub_10,normal,662,668,742,760,732,774,790,758,718,722,742,726,682,670,678,668,712,1216,1008,924,870,828,800,778,768,744,742,726,758,792,812,850,872,880,866,850,840,818,816,824,772,736,758,782,766,774,758,698,718,734,726,756,784,736,776,784,760,734,736,766,764,760,788,760,794,810,772,780,776,770,780,708,710,732,742,740,758,698,690,660,666,650,692,714,704,716,756,754,720,742,702,692,708,722,690,714,722,696,722,728,732,710,706,742,764,706,730,712,754,770,742,744,732,722,736,722,704,718,722,702,718,734,700,730,736,710,698,710,682,666,676,678,664,678,684,656,662,674,664,660,670,656,642,646,648,630,640,642,636,642,648,642,694,704,738,768,742,726,772,760,700,678,692,686,676,710,730,772,782,750,772,750,710,730,708,684,706,720,706,692,714,720,714,682,700,694,660,664,704,714,722,694,668,674,680,674,652,656,690,728,748,720,736,740,674,668,684,676,684,680,732,774,790,762,768,728,660,648,686,722,678,666,638,628,630,648,674,702,722,716,718,720,686,666,672,666,658,688,716,712,702,686,702,718,702,690,678,644,636,614,600,606,622,646,662,668,672,652,638,646,652,674,682,678,684,680,676,644,636,652,662,690,710,730,708,692,724,736,748,754,752,734,700,720,748,760,754,714,692,688,678,660,628,612,634,950,886,826,782,748,728,718,704,698,686,658,648,650,662,666,748,788,780,792,810,816,774,742,682,660,656,666,692,732,776,798,800,796,776,740,712,664,644,634,714,854,798,766,746,710,666,658,668,680,710,754,770,798,788,774,770,778,768,778,744,762,756,744,686,682,686,730,760,716,708,664,398,314,252,434,260,398,254,408,688,698,716,732,698,674,666,696,728,772,780,768,764,760,748,758,760,764,740,742,764,772,798,774,762,772,792,748,710,726,720,708,666,684,690,678,674,692,676,658,682,684,666,660,690,682,678,708,718,688,666,698,700,690,702,666,644,624,622,674,824,842,838,778,786,834,836,766,786,770,732,748,772,754,710,746,770,758,720,692,678,718,686,668,664,698,664,672,700,734,764,768,762,760,766,740,718,692
sub_11,normal,540,326,678,960,886,974,944,798,728,712,868,982,800,792,856,922,882,814,802,800,788,774,754,768,800,866,792,808,836,864,818,848,878,892,862,784,800,766,732,702,730,806,838,898,846,836,868,892,856,810,832,834,824,494,1330,800,520,368,820,782,756,710,672,674,876,916,882,876,890,856,802,796,806,796,770,812,852,836,814,906,946,852,798,822,834,806,858,906,870,844,856,824,778,804,872,924,886,910,946,876,856,882,894,830,870,924,918,888,926,980,906,806,820,840,818,788,798,588,560,664,592,790,762,770,752,726,722,780,846,818,776,778,792,796,754,768,798,848,796,752,698,658,644,622,650,654,724,714,756,792,812,800,788,782,766,788,798,812,846,834,814,824,838,826,804,792,836,834,794,792,882,876,820,818,830,772,760,762,752,718,750,826,788,798,812,764,734,710,720,692,688,722,736,706,772,858,818,772,762,792,820,796,800,802,798,758,792,816,778,794,814,822,768,758,764,770,742,738,748,756,734,716,728,696,676,674,690,698,700,724,768,760,704,696,702,680,662,660,672,692,684,692,736,784,748,756,762,740,690,698,740,798,772,734,754,810,800,774,814,826,802,734,772,736,724,696,708,724,738,700,724,748,728,716,730,750,742,710,706,716,722,694,704,722,732,698,728,762,800,754,768,822,840,792,772,770,756,728,712,732,724,728,746,814,812,760,738,698,670,660,654,646,670,708,738,722,716,746,792,760,704,724,718,704,702,764,818,812,784,808,836,810,780,782,790,752,736,754,774,776,754,772,796,794,756,742,750,748,732,738,768,780,754,758,778,766,734,730,744,756,740,736,754,764,742,714,708,678,670,674,704,702,706,760,762,724,750,772,746,700,696,700,694,662,658,682,712,754,732,766,784,750,746,752,746,722,,,,,,,,,,,,,,,,,,,,,,,,,,,,,,,,,,,,,,,,,,,,,,,,,,,,,,,,,,,,,,,,,,,,,,,,,,,,
sub_12,normal,762,806,820,798,820,848,792,802,824,800,782,722,742,776,796,826,834,836,814,820,850,808,790,810,830,822,780,808,814,776,750,800,826,794,744,778,762,746,774,836,812,822,828,790,778,758,782,852,846,800,836,830,824,852,854,816,828,842,816,808,796,778,814,816,762,768,794,812,798,786,784,806,786,764,758,770,804,826,766,746,762,780,776,596,676,406,252,318,1892,1356,814,718,812,828,792,818,844,786,824,838,812,770,814,854,808,826,842,814,780,834,850,800,828,766,706,750,830,852,784,814,786,710,784,854,858,842,814,822,836,838,836,824,840,870,850,844,864,834,760,726,728,724,824,804,810,856,876,824,842,822,814,774,822,816,766,770,790,762,784,824,810,764,788,826,824,776,788,818,796,760,786,798,784,760,786,794,758,778,808,782,774,818,790,750,780,790,774,754,796,794,774,792,820,768,754,778,762,750,782,744,776,768,738,772,802,746,752,736,772,792,766,744,804,748,788,786,804,778,764,798,800,778,740,786,730,752,780,790,756,778,816,776,742,802,788,778,740,750,754,742,734,778,788,806,752,738,776,768,782,810,808,792,768,758,790,824,814,852,848,820,772,808,810,780,804,836,790,752,792,790,758,776,798,812,792,808,818,794,814,816,798,752,794,808,796,768,792,818,808,814,844,858,792,800,826,816,794,766,746,786,768,790,698,806,776,772,732,784,800,762,760,788,802,790,712,704,706,730,762,748,730,816,760,784,800,804,820,840,826,822,814,794,748,718,714,750,812,824,808,814,824,844,842,836,752,760,714,748,766,814,740,788,792,804,770,776,760,836,832,802,818,830,840,808,792,798,818,774,800,806,826,796,,,,,,,,,,,,,,,,,,,,,,,,,,,,,,,,,,,,,,,,,,,,,,,,,,,,,,,,,,,,,,,,,,,,,,,,,,,,,,,,,,,,,,,,,,,,,,,,,,,,
sub_13,normal,768,776,760,776,738,758,794,786,780,742,750,756,764,730,738,768,746,714,720,728,724,768,762,708,718,766,788,748,780,814,766,784,812,794,802,754,740,730,718,648,632,660,682,748,714,748,802,866,864,846,836,762,730,732,718,728,686,688,732,814,834,784,804,816,812,748,734,748,744,690,712,750,778,736,782,802,806,752,760,766,732,710,734,784,790,774,812,828,766,784,796,728,710,716,706,654,666,696,698,650,658,716,762,716,752,764,752,750,670,656,666,700,708,718,714,660,638,650,600,626,640,694,752,772,834,828,796,770,734,680,606,604,614,634,712,716,774,852,858,812,846,880,856,830,826,816,786,746,740,738,742,724,700,718,764,798,752,764,806,804,746,752,776,736,718,742,768,742,766,778,714,728,784,792,724,722,756,764,686,688,730,750,698,696,760,828,840,744,736,766,758,746,718,650,630,664,686,728,806,820,772,770,754,728,684,636,622,596,576,552,562,568,538,556,612,716,780,768,774,790,748,734,726,680,690,706,704,684,660,600,566,596,622,682,852,894,906,922,940,900,890,864,748,710,706,700,718,722,768,786,740,746,756,716,690,698,696,646,664,692,714,668,666,692,666,658,642,596,588,604,620,662,732,818,774,840,862,794,816,840,694,900,756,696,660,662,680,692,648,664,724,792,806,744,756,750,746,670,660,686,716,704,774,830,812,762,776,770,706,698,718,704,720,738,656,634,636,618,608,614,588,570,588,586,598,572,642,772,816,768,760,800,816,808,782,802,804,782,742,720,708,676,652,672,680,710,668,688,774,784,750,744,706,698,638,624,638,650,702,684,756,824,792,752,778,802,806,750,758,780,726,710,716,692,646,656,676,698,678,626,668,698,774,800,714,716,742,728,726,710,684,660,604,588,602,614,650,706,668,716,782,732,764,810,,,,,,,,,,,,,,,,,,,,,,,,,,,,,,,,,,,,,,,,,,,,,,,,,,,,,,,,,,,,,,,,,,,,
sub_14,normal,810,848,866,850,852,806,786,798,804,824,494,414,732,818,850,862,866,872,798,846,848,852,790,788,790,774,742,694,702,724,790,804,776,812,858,868,808,792,802,794,760,728,734,736,702,686,664,678,692,730,746,710,702,724,752,766,722,732,774,800,750,748,732,652,684,650,642,716,500,598,618,718,734,728,724,708,726,744,710,728,762,754,684,666,692,704,672,684,724,776,796,764,736,758,790,798,802,762,726,746,770,774,718,712,756,788,776,724,750,756,796,822,780,768,804,810,804,740,728,746,774,778,722,752,806,822,798,764,768,772,768,734,708,698,712,720,698,702,728,772,808,752,748,774,778,764,716,706,712,702,716,582,804,654,656,658,676,652,622,656,712,836,922,856,790,702,682,680,690,716,768,788,776,726,648,644,660,668,646,648,636,634,638,656,684,702,708,676,664,672,654,642,674,714,738,490,296,748,862,894,872,856,780,752,784,850,848,888,824,714,756,762,812,844,826,772,774,796,814,780,762,782,804,784,768,782,808,810,758,720,710,716,738,722,710,752,792,758,772,786,904,886,856,806,808,812,808,772,738,746,770,820,782,800,750,796,740,744,734,812,888,862,802,758,788,834,856,816,764,750,780,804,798,736,750,784,796,812,764,772,804,820,802,732,754,800,810,764,722,754,804,782,770,776,792,796,710,692,712,752,726,724,802,880,924,880,816,830,868,856,780,786,822,846,800,742,840,850,810,768,782,818,858,838,810,848,898,928,840,808,804,796,802,770,822,898,914,854,798,800,824,822,768,782,822,856,774,766,758,820,792,728,738,790,850,866,844,812,804,728,670,680,758,856,868,880,934,898,902,964,934,882,902,940,930,826,818,846,824,820,852,894,898,818,802,818,814,854,808,790,802,826,784,764,744,776,746,900,808,794,,,,,,,,,,,,,,,,,,,,,,,,,,,,,,,,,,,,,,,,,,,,,,,,,,,,,,,,,,,,,,,,,,,,,,,,
sub_15,normal,690,854,792,740,758,790,794,764,826,824,786,758,784,814,818,800,784,832,844,764,772,834,780,786,822,842,788,752,782,802,796,744,762,772,766,774,782,790,730,722,776,802,798,770,716,752,780,822,762,840,890,864,788,832,850,762,756,772,750,714,742,798,888,850,770,802,816,762,738,736,764,852,866,860,820,802,738,678,670,708,746,868,876,850,848,938,870,814,794,884,822,866,792,784,734,690,648,700,840,866,858,832,830,840,846,878,880,860,864,862,848,812,736,732,768,798,826,764,828,878,890,812,818,814,764,730,752,806,792,766,828,874,900,832,778,808,816,824,756,780,762,736,762,786,762,734,782,790,724,740,760,748,734,752,790,800,768,812,770,778,780,770,744,754,786,736,768,796,752,742,766,750,728,760,796,748,742,752,790,748,774,786,808,742,736,776,802,758,784,812,794,764,730,682,690,734,670,692,728,764,738,788,836,768,718,724,732,688,710,742,748,762,798,818,748,774,714,718,744,714,682,720,728,694,716,748,740,706,716,720,670,662,694,688,668,718,714,694,774,802,780,728,712,742,716,682,712,734,698,692,774,712,714,720,692,672,678,696,672,674,702,742,718,754,784,778,764,790,772,714,730,740,704,700,744,764,736,748,770,728,726,740,702,700,742,706,686,728,744,690,702,718,698,678,718,738,696,670,722,750,716,688,704,712,680,690,722,710,708,740,746,696,670,652,640,688,624,674,738,796,778,720,748,752,756,696,660,638,630,808,954,952,928,922,900,852,862,870,834,812,764,726,736,808,854,860,806,814,862,820,750,772,814,836,794,778,806,800,738,734,756,784,744,762,806,800,742,762,796,806,758,740,764,782,744,742,786,746,722,760,736,778,752,740,762,760,706,700,732,758,764,824,868,856,802,820,782,768,,,,,,,,,,,,,,,,,,,,,,,,,,,,,,,,,,,,,,,,,,,,,,,,,,,,,,,,,,,,,,,,,,,,,,,,,,
sub_16,normal,668,690,646,630,636,616,586,608,650,664,710,770,696,664,670,622,640,618,474,624,578,584,626,594,636,704,690,706,696,648,684,688,652,600,586,592,566,564,546,612,560,706,720,732,702,712,766,688,678,676,716,728,736,734,702,708,690,664,688,708,620,636,624,636,646,638,684,716,752,694,734,676,644,648,610,624,628,650,708,738,688,720,756,732,706,738,740,676,684,696,742,704,644,676,684,600,658,630,612,604,614,590,588,632,624,636,650,682,702,700,684,668,718,766,728,692,746,794,726,716,682,684,676,688,744,782,774,708,738,770,736,684,638,650,704,716,718,732,792,850,766,756,784,720,710,736,754,748,822,852,752,754,786,756,732,818,838,756,782,772,702,744,820,762,738,744,716,686,688,678,656,652,674,654,676,692,656,650,622,598,612,632,620,598,606,620,650,614,622,656,664,710,686,650,648,656,644,604,618,634,672,670,654,620,606,614,596,618,642,620,644,648,634,642,692,688,654,688,726,690,682,704,674,632,626,648,676,662,710,724,694,734,708,664,680,676,674,652,656,678,676,652,722,766,732,694,726,710,680,690,724,674,666,658,692,756,740,696,706,666,656,660,634,680,650,674,708,714,670,646,676,690,664,650,626,662,720,692,682,706,720,678,686,734,708,672,696,706,680,666,674,646,634,636,670,634,658,698,694,644,660,634,630,604,584,562,566,598,640,616,618,636,664,678,646,612,606,622,614,616,610,614,644,634,636,658,642,614,628,650,680,654,674,692,682,652,666,688,640,660,668,664,620,616,608,570,590,618,542,522,572,520,522,514,510,512,498,500,470,528,486,484,530,506,512,480,568,472,580,514,536,552,594,648,532,612,642,666,698,724,690,686,662,618,610,568,558,566,550,576,620,684,722,714,750,678,658,654,656,664,662,658,654,618,604,596,578,636,630,642,682,732,698,672,650,656,694,734,726,706,780,756,696,704,712,698,650,686,694,668,678,716,754,716,678,702,684,640,682,710,672,686,722,,,,,,,,,,,,,,,,,,,,,,,,,,,,,
sub_17,normal,600,616,674,650,606,698,702,708,672,644,706,712,722,678,704,736,758,772,592,896,538,618,706,704,718,682,698,632,618,692,540,678,724,736,726,664,662,688,720,662,710,728,752,758,726,686,684,664,700,666,650,652,656,690,692,702,738,710,676,702,686,666,662,698,694,682,704,782,728,724,766,716,730,708,716,680,654,684,642,718,654,628,656,684,672,640,682,650,784,550,710,698,646,696,606,644,704,674,600,680,726,752,760,740,664,644,744,718,668,688,746,782,682,736,734,1954,1428,1230,740,674,758,582,660,656,650,634,620,636,682,726,686,780,878,696,732,722,692,660,668,610,662,650,614,668,694,674,670,710,682,650,674,690,674,646,666,694,672,666,688,672,670,648,688,656,648,640,638,648,626,644,680,640,638,672,696,678,706,702,658,656,688,694,634,708,578,616,596,584,638,698,650,676,720,694,744,700,670,674,692,710,676,720,752,718,672,694,692,742,642,674,694,662,664,614,652,624,1196,718,472,648,608,628,678,686,664,628,638,626,620,684,602,664,672,694,634,612,620,648,680,586,668,628,640,606,620,624,628,606,620,616,600,630,572,600,594,640,656,652,656,1316,790,476,568,622,536,566,568,582,578,662,606,638,656,638,670,740,642,650,668,658,642,616,648,642,634,650,708,696,682,666,680,634,660,614,628,624,612,606,614,622,602,604,640,644,646,620,592,598,596,600,618,628,610,624,654,644,658,644,670,686,672,642,668,680,692,686,698,730,690,686,672,684,686,676,670,698,692,658,680,670,672,656,626,618,620,662,652,632,652,684,650,692,690,678,656,662,698,680,664,676,706,694,668,688,702,708,674,686,716,684,666,692,700,706,670,692,712,704,670,654,688,644,636,614,662,666,626,666,682,676,664,624,656,664,616,622,652,640,646,624,620,602,662,642,604,622,666,686,634,648,666,682,656,624,640,658,652,642,622,1278,766,502,660,614,612,578,630,660,648,664,630,674,590,640,560,608,592,600,,,,,,,,,,,,,,,,,,,,,,,,,,,,,,,,,,
sub_18,normal,662,680,634,694,792,806,764,848,880,752,782,794,742,708,658,620,644,744,728,736,846,854,788,838,850,780,768,774,722,684,746,770,670,728,818,736,712,754,734,668,766,822,708,750,800,706,744,800,714,700,694,728,666,628,670,704,750,670,764,680,756,694,716,634,618,656,722,698,704,722,716,668,700,718,708,644,622,638,602,612,636,622,604,664,736,686,678,720,794,682,702,750,682,670,728,798,694,746,772,662,714,782,700,718,766,786,700,738,810,786,734,774,776,700,728,742,734,668,710,750,694,754,868,740,718,778,784,674,736,814,742,664,732,780,718,730,702,664,634,598,614,668,680,648,670,708,648,630,668,712,772,684,690,758,784,736,724,742,722,662,710,756,738,684,738,746,662,690,698,684,688,824,748,652,656,670,654,648,756,802,730,728,782,742,656,720,712,656,682,666,634,702,638,606,628,652,696,726,718,692,668,620,624,662,656,630,704,812,750,676,736,792,678,654,694,746,756,720,756,828,772,768,822,840,816,696,712,762,662,608,632,674,752,696,676,686,756,782,732,708,636,680,700,722,640,668,724,760,670,706,758,786,712,716,690,712,658,630,644,614,578,604,650,656,626,698,810,772,688,774,802,732,730,810,874,766,746,768,770,682,658,694,752,712,760,856,840,732,758,786,718,690,728,742,656,688,790,770,672,712,790,762,682,724,828,720,684,700,678,626,630,664,684,638,632,662,688,658,660,780,804,700,766,870,784,686,708,678,604,610,606,600,660,642,614,670,754,738,666,700,740,676,678,718,748,670,722,838,800,670,688,700,720,734,720,654,622,638,664,668,618,658,710,686,648,688,736,662,668,700,712,634,630,674,750,692,688,756,790,688,668,712,688,648,680,748,744,684,606,596,582,574,594,648,626,688,778,716,646,712,750,694,644,680,732,692,660,724,772,688,698,760,766,666,686,702,668,602,618,694,718,656,702,736,700,422,298,670,682,632,662,720,748,670,,,,,,,,,,,,,,,,,,,,,,,,,,,,,,,,,,,,,,
sub_19,normal,604,610,614,616,656,660,636,632,662,654,624,622,624,612,610,616,592,594,598,594,600,598,600,596,584,578,594,582,574,576,560,574,568,572,580,592,586,592,590,588,604,578,594,596,600,608,598,602,614,604,606,618,622,604,614,618,602,594,590,580,590,596,598,586,574,578,576,578,588,600,610,608,600,602,600,596,600,596,576,568,564,566,586,602,628,672,696,660,626,628,656,638,618,626,622,618,598,600,602,604,608,598,602,614,610,598,600,596,606,598,604,602,610,590,584,576,566,568,574,576,568,564,546,560,574,594,610,606,598,596,604,596,606,622,636,642,626,630,634,638,632,616,600,606,604,602,608,594,612,620,630,640,630,636,624,608,594,584,574,576,586,600,616,604,618,632,648,646,614,630,640,656,668,672,684,700,692,648,636,626,608,596,610,650,700,692,706,730,698,680,684,662,640,638,634,616,610,612,614,606,608,620,618,612,626,622,620,606,596,598,602,604,628,640,648,630,644,646,636,622,638,634,632,618,610,608,618,610,632,644,628,620,622,624,608,610,616,618,604,610,616,626,610,606,608,610,596,606,624,626,616,620,622,630,610,604,606,596,604,616,622,612,600,614,612,602,588,594,588,580,590,598,582,588,576,574,582,596,580,592,578,580,574,568,574,562,570,580,602,608,618,610,612,598,606,608,606,596,616,636,640,630,650,636,644,616,618,638,620,616,620,628,616,612,616,624,626,610,616,614,608,596,606,598,608,594,612,618,620,606,614,608,602,606,620,600,614,620,630,616,618,626,618,594,596,600,594,588,582,596,600,596,604,620,626,618,608,612,610,586,600,594,592,576,592,600,608,588,606,602,596,584,602,594,590,574,594,596,600,590,602,600,586,594,588,582,572,584,586,596,582,594,586,588,598,590,572,580,568,562,558,574,566,582,584,574,570,562,574,564,580,596,628,648,644,630,628,612,618,616,624,634,628,624,626,618,606,590,594,590,586,584,596,602,610,608,610,626,634,646,624,634,624,618,620,604,614,616,634,614,640,624,620,612,620,622,606,620,628,626,610,630,632,626,606,616,608,,,,,
sub_20,normal,286,544,326,548,892,862,806,840,864,868,822,864,908,884,870,944,1022,952,962,960,882,922,946,880,918,958,936,994,968,830,802,892,962,982,892,920,958,870,932,948,908,972,952,940,976,888,884,954,918,920,956,840,896,966,940,906,950,838,846,938,978,918,970,918,854,932,940,874,894,948,904,964,976,948,990,948,988,934,948,916,962,910,912,962,878,852,940,946,864,920,910,916,932,902,954,908,894,938,836,886,922,836,888,878,872,928,866,910,838,892,856,922,882,922,886,878,928,840,886,946,862,882,946,896,916,944,868,908,950,936,908,954,948,880,924,968,910,874,928,952,836,770,868,944,894,856,922,904,872,938,916,906,938,894,938,936,852,894,934,854,852,928,882,856,916,902,846,888,902,858,914,854,880,940,870,926,912,900,950,890,924,906,878,920,860,892,906,836,884,824,894,852,838,912,870,882,912,828,876,884,840,888,844,858,910,832,856,910,850,866,938,898,890,940,852,872,904,834,884,908,858,904,886,846,890,856,866,904,840,874,888,846,894,880,858,896,850,854,906,858,866,904,810,762,824,870,808,860,910,850,864,908,862,844,896,830,884,850,840,902,872,852,892,870,836,900,876,872,906,850,900,888,844,882,838,852,874,836,892,880,842,894,850,836,870,814,842,824,804,858,818,816,856,838,792,842,878,808,848,886,802,770,836,876,842,858,904,854,892,896,844,878,842,856,902,846,894,836,874,828,834,868,814,854,846,820,864,812,826,870,802,832,862,750,828,890,868,,,,,,,,,,,,,,,,,,,,,,,,,,,,,,,,,,,,,,,,,,,,,,,,,,,,,,,,,,,,,,,,,,,,,,,,,,,,,,,,,,,,,,,,,,,,,,,,,,,,,,,,,,,,,,,,,,,,,,,,,,,,,,,,,,,,,,,
sub_21,normal,588,586,584,600,604,650,652,622,616,628,616,608,598,574,564,576,574,596,648,708,714,684,656,608,600,624,630,606,600,612,638,622,610,614,634,626,608,592,636,654,658,638,640,664,678,648,636,644,650,648,628,618,632,616,604,622,642,626,620,642,636,614,600,596,592,612,618,604,612,636,666,658,628,626,650,676,690,668,662,686,698,672,664,668,650,640,636,616,608,620,642,678,706,694,678,712,736,742,686,654,652,656,642,632,646,676,700,676,644,628,624,638,646,636,628,658,698,722,694,688,700,710,692,652,626,640,646,642,604,624,650,656,638,626,650,630,628,614,584,586,578,598,616,626,604,598,608,644,694,668,648,664,666,638,612,610,620,632,620,606,610,648,670,646,660,702,722,700,662,660,668,666,642,622,632,654,678,658,654,678,668,644,638,660,666,638,622,634,654,676,660,648,660,666,652,628,612,614,640,670,664,646,654,672,688,692,658,644,650,658,664,644,634,666,700,722,690,676,688,674,636,616,638,632,646,622,638,626,612,614,612,592,586,594,604,626,656,646,624,646,680,714,722,678,648,660,650,644,624,600,586,590,596,610,606,626,664,710,692,662,658,668,676,670,642,622,620,614,610,602,600,620,656,646,630,644,674,684,666,648,644,648,652,650,624,614,624,632,670,686,668,676,694,696,670,646,650,658,676,684,662,656,660,678,710,690,676,692,684,656,642,638,632,618,600,584,602,662,716,704,668,662,668,672,668,642,630,636,644,646,638,628,646,670,680,658,648,660,668,676,652,636,632,636,650,642,650,684,708,690,670,674,676,658,636,614,610,622,652,666,648,654,668,678,652,638,642,644,630,612,608,624,644,686,690,664,670,684,682,652,650,670,656,630,618,628,644,668,664,660,676,684,676,650,640,634,622,630,652,666,658,640,638,642,648,636,620,636,664,676,662,666,682,688,670,646,656,642,628,622,642,672,678,666,692,710,694,666,656,644,622,610,628,644,652,644,664,686,692,682,654,642,644,646,634,622,632,648,652,636,624,640,654,642,626,622,628,614,606,616,634,662,654,640,650,668,684,688,670,644,642,630
sub_22,normal,792,884,786,694,680,820,746,668,836,934,888,770,718,946,950,806,688,630,668,922,694,596,766,680,640,948,834,688,772,886,766,712,822,808,698,776,880,798,690,758,894,912,764,670,844,898,744,760,888,776,710,946,870,708,688,840,748,652,644,620,748,868,778,726,656,606,738,760,664,620,744,820,722,662,822,910,778,694,826,780,668,698,774,718,642,772,828,786,662,626,780,742,650,670,796,772,678,752,810,772,662,632,770,706,632,624,652,604,570,558,554,704,676,638,646,654,608,588,808,822,760,674,776,838,794,684,744,816,782,674,660,740,758,674,650,748,744,656,620,710,732,662,634,804,758,648,628,688,646,596,646,734,672,632,748,778,688,620,668,698,666,668,694,638,584,592,628,586,564,622,628,596,566,632,624,584,570,650,630,580,562,600,604,568,544,574,590,554,536,552,572,564,572,700,670,632,610,678,716,648,584,586,618,584,544,546,618,600,566,564,636,642,592,558,628,618,576,556,574,588,556,542,546,554,536,522,552,570,546,530,560,592,576,550,546,574,570,550,532,512,528,584,570,544,530,514,566,662,634,578,592,600,622,580,572,548,560,570,572,560,536,526,556,564,538,516,544,608,580,564,678,722,642,598,710,676,602,584,636,604,568,610,654,630,586,590,770,708,650,638,644,602,616,828,858,816,712,740,786,690,626,630,596,558,664,640,704,728,682,630,666,704,638,606,642,666,618,632,668,634,622,688,668,626,722,758,684,614,596,672,664,642,644,742,752,688,692,696,634,644,662,618,590,654,614,570,574,608,586,618,708,678,660,742,682,628,726,750,666,706,668,640,692,704,658,664,658,620,596,650,666,618,594,624,608,588,616,698,706,652,624,686,724,678,680,714,680,632,660,706,660,622,662,640,596,586,578,550,548,560,646,614,588,666,742,678,624,634,648,602,578,654,646,632,718,712,702,754,656,624,620,584,574,632,648,608,620,692,678,628,630,702,700,640,608,664,652,604,612,660,632,612,608,610,578,540,532,534,556,574,546,586,584,570,548,542,552,550,528,522,582,,,,,,,,,,,
sub_23,normal,640,652,698,748,750,742,782,742,716,692,644,650,670,682,716,704,714,720,738,736,712,714,700,696,722,730,710,702,712,732,724,694,706,696,712,744,712,720,740,680,700,726,668,674,718,702,672,684,616,618,626,602,610,648,682,704,736,754,762,744,788,740,742,720,726,758,768,756,786,814,760,780,792,768,722,726,752,772,766,786,802,768,770,788,734,730,750,734,690,684,708,740,704,716,748,718,698,724,734,700,660,632,646,680,758,810,822,842,786,752,746,748,716,736,770,774,764,794,812,794,820,830,774,778,760,724,772,752,726,730,708,728,778,756,788,794,766,794,800,744,732,750,706,730,766,736,784,816,780,802,746,728,726,696,748,696,736,720,736,712,706,708,664,688,702,690,712,726,696,724,744,700,738,762,736,790,806,752,768,774,736,766,784,758,800,780,736,786,802,760,764,754,724,740,750,712,732,782,754,784,804,738,746,762,740,736,780,748,742,760,742,720,772,766,716,762,786,760,786,792,754,760,752,734,772,776,746,766,782,738,744,774,746,750,762,722,700,710,704,678,696,732,722,750,798,758,730,768,734,600,806,750,668,694,692,714,794,790,822,846,810,828,846,812,854,846,798,766,768,738,772,812,804,832,852,820,808,820,762,726,758,750,730,784,794,772,834,832,768,798,804,756,786,800,754,764,794,758,790,784,706,692,678,658,662,674,722,770,734,764,746,712,668,680,662,674,670,692,678,680,726,720,712,738,740,782,728,750,768,742,706,656,644,630,604,622,614,608,644,642,668,682,716,692,716,746,726,730,774,762,752,740,722,716,720,716,784,832,788,796,806,764,754,768,742,740,780,774,740,784,810,776,794,808,748,766,794,784,818,810,788,742,726,694,706,736,728,802,842,818,850,840,796,774,762,702,716,736,728,744,772,746,,,,,,,,,,,,,,,,,,,,,,,,,,,,,,,,,,,,,,,,,,,,,,,,,,,,,,,,,,,,,,,,,,,,,,
sub_24,normal,694,702,692,722,678,690,660,678,664,668,672,654,668,680,706,720,748,784,786,776,756,734,706,710,724,720,728,736,722,726,760,780,736,744,756,750,714,724,734,706,716,752,790,788,802,812,796,792,810,802,770,772,768,748,756,762,734,714,720,702,698,712,706,772,830,816,808,810,796,754,722,710,700,694,714,730,724,704,716,724,714,744,812,818,798,834,856,828,836,822,776,744,740,728,744,776,782,752,776,798,778,780,808,788,762,758,764,752,746,768,774,744,750,778,768,742,746,758,734,748,778,756,752,762,754,744,770,792,768,750,746,722,732,764,752,728,752,758,740,750,768,774,748,754,764,736,722,728,730,724,740,776,794,772,734,742,726,718,734,716,692,710,654,664,692,750,778,790,738,722,740,838,818,754,694,674,650,634,630,634,646,690,718,748,754,760,740,744,762,740,720,728,732,730,776,800,814,824,784,792,826,840,830,802,810,780,738,712,720,750,776,780,750,782,826,776,754,748,752,736,732,736,728,704,692,716,714,732,720,736,760,772,778,732,716,744,782,798,788,794,792,778,758,766,782,772,786,814,802,764,738,750,752,736,702,706,726,756,748,784,800,772,736,700,688,706,698,706,742,784,800,832,848,820,830,806,768,734,706,714,748,678,700,698,664,662,652,668,702,730,784,832,810,794,780,786,830,866,848,786,758,762,804,860,864,804,798,780,726,678,654,660,682,750,852,880,868,866,784,748,728,726,792,802,788,750,742,710,698,716,750,746,742,772,812,788,740,710,722,752,772,760,758,768,788,792,758,754,774,798,792,790,816,852,850,832,772,720,712,720,728,778,810,848,840,798,776,738,726,760,780,772,750,776,808,834,802,746,728,730,712,736,784,790,760,772,816,832,824,,,,,,,,,,,,,,,,,,,,,,,,,,,,,,,,,,,,,,,,,,,,,,,,,,,,,,,,,,,,,,,,,,,,,,,,,,,,,,,,,,,
sub_25,normal,692,722,694,662,676,686,654,638,648,622,596,632,612,610,646,672,634,616,644,614,624,634,606,624,662,632,612,624,594,608,622,594,616,638,610,614,584,604,634,608,626,610,614,646,616,606,624,634,602,620,650,608,616,648,612,604,644,616,612,646,628,646,658,618,616,630,626,602,634,642,606,626,624,604,626,634,606,616,642,620,616,640,616,620,552,564,558,564,550,592,542,564,598,612,540,560,596,570,560,582,610,602,620,668,654,648,684,638,614,624,660,606,618,634,614,640,680,702,648,676,680,652,666,694,690,638,650,704,710,690,702,688,650,658,682,652,614,624,604,596,612,618,598,600,616,600,590,600,598,576,594,582,584,600,620,600,630,654,642,650,686,690,632,636,660,620,646,624,654,632,616,594,554,544,542,550,568,566,568,546,538,578,688,666,670,738,730,656,676,688,620,618,636,612,628,696,674,678,620,630,658,642,612,624,618,600,592,602,628,606,616,640,638,646,668,666,614,626,614,602,596,644,598,610,628,610,598,632,658,618,644,670,648,632,648,668,650,692,698,636,662,618,612,648,664,640,684,710,638,684,698,654,636,640,656,648,668,734,708,716,688,664,704,708,664,630,616,586,594,584,604,586,674,684,636,664,686,696,642,594,724,662,632,638,636,654,798,686,666,704,732,696,708,674,636,604,612,626,638,744,848,748,758,776,690,688,660,642,666,664,624,662,688,656,646,678,680,624,646,630,610,608,620,610,600,608,616,594,604,616,604,598,618,656,622,598,634,628,612,636,662,624,676,680,630,618,624,604,576,590,606,612,596,624,668,640,656,696,670,666,614,598,604,632,640,618,636,666,628,648,674,672,622,644,660,640,636,606,612,622,616,654,642,676,756,692,698,684,652,672,690,648,618,626,640,608,630,636,600,604,624,610,600,612,610,570,590,574,570,602,598,566,596,622,582,596,604,620,598,600,620,610,582,610,630,602,614,642,630,624,640,666,616,614,606,602,590,614,642,622,640,668,624,630,626,620,584,594,592,608,592,624,634,600,614,662,678,666,726,676,686,664,644,610,612,608,588,580,594,618,622,604
sub_26,normal,736,790,694,642,680,726,776,794,790,756,708,678,660,626,612,628,662,732,800,848,788,770,772,788,778,710,698,714,764,820,816,756,770,804,826,818,786,730,724,670,634,648,716,806,844,818,742,752,792,748,722,772,710,658,650,676,714,662,628,658,714,762,712,680,706,726,750,708,738,746,670,678,698,716,744,748,744,712,666,648,620,586,588,608,666,752,708,694,742,794,814,742,712,728,754,774,752,724,680,664,662,620,592,598,624,712,808,752,706,710,686,694,752,770,718,644,608,614,654,738,800,824,822,788,708,646,624,670,754,790,782,738,692,674,678,658,706,710,740,702,682,722,784,830,796,746,744,758,772,774,722,688,686,654,636,644,674,718,760,706,696,714,734,776,784,726,686,630,644,682,730,762,780,768,726,696,694,718,722,682,668,686,718,774,808,764,710,712,716,754,776,762,716,680,664,624,598,600,618,668,704,684,702,752,774,728,700,704,732,748,690,668,678,714,754,760,724,728,742,756,728,694,720,742,744,698,682,698,732,768,782,760,736,688,664,616,584,582,586,630,744,746,694,720,772,820,840,804,748,754,756,754,716,664,650,646,662,690,708,672,668,648,616,610,612,630,684,766,716,728,768,786,796,752,692,672,666,682,712,700,662,700,750,790,734,682,710,758,754,702,730,752,744,690,692,708,734,706,654,616,598,656,784,828,804,764,710,684,666,674,688,700,664,654,688,734,798,800,726,712,722,742,766,750,732,754,772,776,740,720,732,746,686,638,632,626,632,628,646,676,688,692,656,622,644,694,762,802,756,742,770,782,778,772,714,686,678,686,708,700,676,680,710,706,654,636,640,656,704,750,686,658,662,642,648,674,690,654,624,626,638,678,716,686,684,726,772,802,808,802,776,754,702,668,640,608,586,592,614,710,808,756,762,804,816,728,726,742,744,748,716,656,628,624,634,668,712,,,,,,,,,,,,,,,,,,,,,,,,,,,,,,,,,,,,,,,,,,,,,,,,,,,,,,,
sub_27,normal,730,800,826,778,766,824,802,612,368,586,792,806,804,750,762,788,812,822,818,822,804,816,830,802,776,802,796,824,816,832,842,822,808,798,796,756,720,708,680,690,750,740,760,810,834,800,796,814,796,810,824,796,814,816,796,818,830,802,812,832,840,812,828,826,774,748,818,726,586,352,648,780,692,416,520,794,796,794,790,764,802,804,788,794,816,824,792,812,824,804,802,822,808,802,810,780,782,804,836,760,788,812,762,776,794,758,756,782,794,786,774,778,742,740,770,758,746,774,760,776,736,760,780,790,772,766,784,780,756,754,778,782,744,774,786,748,770,792,798,756,750,742,722,738,758,734,752,782,790,766,790,830,742,776,784,788,742,686,700,740,732,706,726,598,358,456,690,758,774,796,822,818,814,848,870,880,884,876,862,838,814,816,814,806,794,758,770,790,816,742,720,744,738,740,742,740,756,762,752,758,784,786,798,806,798,800,808,788,688,870,810,782,786,798,810,794,812,822,802,794,780,740,756,760,776,748,760,766,768,764,782,794,774,784,792,776,772,790,788,772,762,786,788,760,768,784,790,766,788,790,782,770,792,786,776,788,792,754,766,788,772,770,742,728,754,750,730,760,776,760,762,792,804,814,774,796,802,780,704,746,750,778,790,800,774,764,724,696,686,656,662,712,756,784,770,806,816,820,800,802,810,814,772,776,788,790,794,780,796,798,772,788,780,784,758,736,756,740,712,764,782,774,754,750,776,792,798,780,804,810,798,782,790,788,774,790,802,794,818,798,812,826,814,802,818,820,782,778,792,774,798,802,772,766,784,788,760,776,784,764,754,780,782,772,788,810,774,770,788,792,774,802,808,792,786,808,812,762,764,790,794,,,,,,,,,,,,,,,,,,,,,,,,,,,,,,,,,,,,,,,,,,,,,,,,,,,,,,,,,,,,,,,,,,,,,,,,,,,,,,,,,,,,,,,,,,,
